78,371,663,947,1232,1516,1810,2045,2403,2707,2999,3283,3561,3863,4171,4467,4765,5061,5347,5634,5919,6215,6528,6824,7107,7392,7671,7954,8246,8540,8838,9142,9432,9711,9999,10283,10592,10895,11192,11481,11782,12067,12351,12646,12950,13267,13563,13843,14132,14424,14711,15012,15311,15608,15900,16184,16465,16756,17059,17359,17658,17948,18228,18515,18796,19081,19389,19694,19990,20272,20555,20838,21132,21424,21730,22030,22322,22604,22882,23165,23454,23757,24054,24346,24626,24914,25198,25486,25780,26089,26388,26671,26953,27238,27537,27834,28133,28432,28728,29015,29295,29581,29874,30183,30488,30780,31066,31349,31636,31928,32225,32530,32837,33128,33404,33692,33981,34275,34576,34871,35169,35456,35737,36017,36310,36606,36917,37216,37500,37783,38072,38357,38652,38951,39253,39548,39826,40097,40383,40678,40971,41272,41568,41850,42118,42417,42698,42997,43308,43604,43893,44173,44456,44744,45031,45324,45629,45926,46205,46479,46760,47038,47335,47633,47920,48203,48487,48767,49041,49324,49619,49924,50215,50492,50772,51057,51340,51627,51922,52217,52507,52785,53064,53342,53632,53924,54220,54508,54785,55065,55344,55626,55909,56208,56503,56785,57056,57334,57616,57901,58193,58491,58789,59078,59355,59632,59920,60215,60516,60818,61106,61392,61681,61964,62248,62548,62853,63155,63439,63712,63999,64289,64582,64877,65175,65465,65751,66031,66308,66605,66793,67131,67435,67729,68008,68303,68595,68887,69192,69504,69797,70074,70358,70644,70942,71241,71540,71846,72139,72418,72704,72999,73302,73612,73912,74197,74484,74768,74987,75333,75633,75935,76234,76516,76786,77075,77367,77664,77955,78252,78540,78825,79101,79387,79690,79992,80291,80584,80869,81153,81440,81731,82031,82336,82637,82928,83210,83493,83795,84104,84408,84710,85011,85304,85581,85871,86172,86479,86781,87080,87365,87653,87942,88233,88531,88835,89136,89422,89704,89989,90287,90591,90886,91191,91482,91762,92047,92339,92634,92945,93247,93535,93825,94103,94396,94694,94997,95299,95607,95894,96172,96451,96747,97051,97349,97645,97937,98229,98509,98790,99085,99383,99580,99931,100219,100497,100782,101072,101362,101654,101942,102235,102517,102794,103075,103372,103670,103965,104262,104546,104831,105119,105408,105708,106016,106315,106601,106883,107160,107454,107751,108046,108343,108644,108927,109200,109487,109773,110077,110375,110674,110964,111245,111525,111811,112109,112406,112711,113001,113282,113563,113851,114143,114429,114717,115001,115281,115548,115816,116085,116370,116655,116940,117214,117495,117767,118045,118324,118608,118912,119216,119510,119792,120078,120377,120677,120991,121301,121605,121890,122171,122461,122751,123051,123361,123665,123937,124222,124508,124776,125061,125356,125649,125927,126204,126477,126747,127026,127314,127604,127893,128086,128424,128699,128959,129231,129520,129799,130058,130319,130569,130819,131074,131327,131585,131852,132123,132382,132630,132884,133133,133391,133663,133934,134198,134464,134738,134991,135244,135505,135781,136062,136351,136631,136900,137171,137450,137730,138009,138305,138599,138889,139165,139441,139720,140010,140303,140600,140882,141153,141424,141685,141944,142208,142480,142748,143011,143266,143516,143767,144026,144287,144558,144833,145112,145382,145648,145903,146171,146446,146738,147014,147291,147566,147833,148100,148364,148638,148917,149205,149489,149769,150031,150304,150576,150850,151123,151408,151701,151975,152238,152511,152782,153068,153363,153645,153923,154194,154471,154742,155010,155292,155589,155866,156133,156396,156649,156907,157169,157431,157696,157961,158234,158490,158731,158975,159226,159480,159739,160002,160261,160508,160756,161006,161255,161500,161765,162036,162309,162574,162836,163094,163363,163630,163900,164183,164462,164732,164992,165247,165500,165757,166033,166302,166571,166842,167112,167372,167642,167913,168192,168485,168785,169075,169350,169630,169908,170202,170496,170720,171075,171372,171653,171922,172200,172482,172777,173068,173352,173630,173908,174177,174452,174738,175024,175324,175609,175878,176146,176428,176699,176976,177249,177524,177798,178060,178317,178579,178842,179118,179389,179663,179928,180183,180444,180706,180965,181237,181524,181812,182085,182354,182625,182897,183182,183476,183779,184072,184362,184650,184934,185214,185511,185829,186138,186429,186718,187006,187292,187578,187873,188180,188482,188764,189044,189331,189625,189930,190229,190530,190821,191113,191396,191675,191978,192282,192576,192863,193147,193424,193704,193995,194282,194575,194869,195157,195427,195702,195979,196269,196561,196848,197133,197415,197686,197951,198225,198505,198792,199076,199354,199620,199895,200162,200435,200715,200994,201272,201546,201807,202068,202340,202615,202897,203183,203469,203742,204022,204300,204575,204855,205159,205460,205738,206017,206289,206568,206845,207131,207422,207725,208005,208278,208549,208823,209101,209393,209684,209974,210257,210535,210810,211086,211365,211655,211952,212229,212503,212778,213059,213327,213607,213895,214182,214466,214739,215006,215281,215564,215851,216142,216432,216711,216991,217269,217548,217825,218123,218417,218704,218973,219247,219530,219814,220099,220392,220692,220978,221253,221528,221805,222082,222376,222667,222952,223228,223508,223784,224048,224329,224622,224916,225196,225473,225744,226025,226297,226574,226864,227145,227428,227703,227976,228239,228517,228809,229095,229377,229661,229937,230215,230486,230762,231059,231358,231639,231914,232191,232460,232733,233017,233302,233589,233876,234152,234416,234685,234960,235250,235548,235829,236109,236391,236665,236928,237206,237496,237784,238071,238344,238611,238885,239158,239434,239718,239997,240267,240542,240810,241066,241319,241589,241856,242115,242374,242633,242880,243133,243389,243644,243909,244192,244462,244730,244985,245247,245516,245792,246066,246353,246648,246936,247202,247470,247743,248018,248301,248587,248879,249159,249434,249707,249989,250274,250559,250859,251161,251442,251711,251995,252286,252585,252869,253160,253457,253742,254011,254283,254586,254892,255171,255454,255739,256028,256296,256573,256861,257158,257440,257711,257967,258227,258479,258738,259006,259281,259542,259812,260077,260335,260586,260853,261133,261418,261691,261969,262242,262517,262790,263063,263351,263642,263932,264218,264500,264773,265063,265355,265652,265948,266239,266529,266816,267100,267376,267680,267979,268261,268545,268824,269103,269385,269670,269961,270258,270551,270822,271095,271371,271657,271953,272245,272534,272840,273124,273395,273676,273968,274265,274561,274853,275132,275404,275672,275950,276236,276517,276805,277103,277389,277650,277924,278212,278519,278815,279099,279383,279577,279919,280210,280512,280815,281111,281403,281683,281956,282233,282514,282802,283097,283390,283673,283945,284217,284492,284779,285074,285364,285654,285937,286211,286487,286764,287052,287354,287656,287945,288226,288507,288793,289077,289374,289668,289972,290258,290539,290814,291110,291408,291697,291991,292282,292567,292845,293124,293412,293713,294012,294297,294582,294858,295143,295422,295718,296014,296320,296612,296890,297170,297451,297739,298033,298335,298628,298921,299207,299484,299757,300052,300361,300663,300941,301211,301495,301782,302064,302348,302645,302948,303241,303504,303774,304066,304362,304640,304924,305212,305498,305710,306036,306338,306642,306944,307235,307515,307746,308063,308350,308626,308913,309217,309516,309781,310053,310333,310627,310915,311200,311489,311784,312063,312328,312606,312826,313194,313509,313809,314091,314374,314665,314953,315246,315542,315844,316137,316416,316694,316981,317267,317561,317786,318146,318439,318730,319012,319224,319587,319905,320206,320494,320787,321073,321372,321664,321969,322276,322574,322857,323139,323426,323731,324045,324341,324642,324930,325216,325496,325783,326089,326396,326699,326987,327277,327567,327859,328150,328453,328754,329057,329340,329620,329913,330217,330525,330820,331125,331412,331705,331990,332280,332589,332898,333200,333480,333769,334057,334349,334644,334944,335249,335544,335824,336101,336386,336680,336980,337282,337572,337863,338146,338433,338721,339026,339328,339635,339927,340206,340493,340781,341076,341380,341685,341975,342267,342548,342823,343116,343410,343706,343996,344280,344557,344844,345130,345416,345723,346018,346309,346597,346805,347148,347455,347760,348064,348368,348659,348935,349222,349503,349805,350113,350411,350693,350981,351266,351482,351822,352116,352417,352712,352987,353258,353548,353833,354129,354427,354718,355016,355303,355580,355859,356166,356464,356759,357046,357328,357611,357901,358187,358483,358789,359087,359366,359635,359904,360183,360472,360764,361052,361344,361626,361895,362163,362452,362733,363027,363319,363607,363879,364159,364447,364731,365023,365331,365641,365915,366192,366483,366779,367064,367364,367675,367961,368248,368532,368825,369110,369411,369715,370011,370280,370558,370843,371132,371407,371704,372008,372300,372558,372835,373124,373429,373713,374001,374304,374596,374856,375125,375413,375716,375999,376288,376577,376862,377082,377405,377701,378006,378309,378609,378887,379160,379440,379732,380024,380313,380611,380899,381174,381453,381725,382015,382309,382608,382896,383184,383458,383744,384028,384318,384615,384916,385206,385488,385769,386051,386350,386650,386942,387242,387534,387812,388085,388374,388672,388980,389278,389564,389861,390150,390435,390731,391040,391345,391642,391925,392205,392494,392781,393078,393378,393675,393958,394244,394520,394802,395097,395402,395698,395990,396269,396554,396846,397134,397336,397705,398008,398295,398570,398854,399140,399437,399731,400024,400322,400600,400878,401164,401454,401758,402062,402362,402647,402934,403216,403510,403805,404101,404404,404698,404981,405256,405544,405837,406132,406426,406716,407006,407289,407560,407850,408152,408453,408747,409031,409315,409598,409882,410178,410478,410782,411072,411353,411633,411916,412207,412513,412817,413110,413403,413693,413970,414250,414542,414848,415144,415431,415704,415995,416276,416556,416850,417153,417446,417729,418007,418284,418578,418867,419156,419454,419746,420023,420303,420584,420874,421174,421475,421767,421995,422321,422604,422819,423165,423463,423768,424065,424340,424617,424894,425189,425492,425789,426079,426381,426662,426939,427226,427524,427828,428130,428414,428699,428993,429277,429559,429868,430166,430471,430755,431035,431316,431616,431911,432210,432510,432800,433083,433365,433649,433842,434212,434514,434811,435097,435371,435659,435952,436150,436513,436820,437119,437401,437683,437966,438269,438571,438866,439159,439455,439741,440023,440313,440623,440935,441231,441519,441815,442110,442407,442624,442993,443305,443607,443889,444176,444474,444706,445061,445363,445659,445949,446227,446508,446801,447105,447403,447696,447981,448265,448549,448835,449138,449442,449749,450039,450326,450608,450896,451194,451502,451806,452102,452391,452679,452960,453251,453546,453853,454155,454445,454652,454998,455294,455589,455889,456190,456488,456772,457046,457334,457635,457938,458169,458525,458817,459104,459381,459665,459967,460276,460572,460859,461149,461434,461722,462015,462315,462622,462920,463198,463482,463766,464050,464362,464665,464961,465258,465539,465821,466105,466405,466708,467011,467309,467590,467879,468165,468460,468763,469066,469364,469661,469943,470231,470531,470838,471140,471445,471728,472020,472305,472590,472888,473202,473499,473793,474075,474363,474653,474943,475238,475548,475852,476137,476418,476706,477001,477308,477605,477899,478196,478481,478758,479041,479333,479634,479932,480219,480495,480780,481058,481341,481642,481942,482240,482526,482802,483072,483351,483635,483931,484221,484508,484787,485074,485353,485642,485940,486254,486557,486845,487130,487424,487720,488019,488321,488636,488932,489215,489498,489789,490091,490394,490696,490995,491288,491571,491851,492146,492446,492751,493047,493341,493624,493915,494200,494492,494790,495086,495371,495650,495925,496202,496500,496713,497075,497377,497665,497946,498231,498518,498813,499115,499418,499702,499988,500269,500550,500848,501146,501449,501746,502040,502317,502602,502889,503192,503497,503795,504081,504373,504655,504937,505228,505529,505831,506126,506399,506680,506970,507257,507553,507856,508160,508456,508745,509020,509320,509624,509924,510221,510521,510805,511094,511372,511661,511971,512278,512568,512852,513136,513425,513720,514015,514319,514629,514920,515195,515477,515763,516066,516372,516668,516971,517267,517554,517833,518128,518427,518735,519029,519308,519595,519883,520150,520464,520769,520983,521343,521628,521914,522210,522512,522816,523117,523417,523709,524000,524280,524578,524891,525199,525493,525781,526065,526356,526647,526942,527244,527550,527839,528119,528403,528690,528992,529294,529600,529898,530192,530472,530763,531058,531359,531669,531968,532258,532545,532829,533122,533417,533720,534013,534308,534593,534874,535162,535460,535769,536068,536365,536645,536931,537213,537506,537811,538116,538422,538708,538994,539279,539576,539875,540173,540473,540769,541053,541335,541617,541917,542227,542530,542826,543117,543408,543690,543984,544286,544591,544896,545183,545456,545742,546023,546307,546600,546793,547200,547483,547759,548033,548335,548633,548927,549218,549503,549785,550071,550349,550640,550953,551254,551533,551816,552097,552386,552681,552975,553283,553589,553877,554155,554440,554724,555027,555324,555614,555915,556204,556487,556766,557057,557362,557668,557963,558239,558528,558814,559103,559396,559696,559998,560296,560577,560847,561142,561436,561733,562020,562309,562592,562813,563142,563424,563732,564031,564321,564602,564884,565165,565453,565742,566042,566260,566616,566900,567186,567380,567722,568028,568327,568625,568920,569205,569483,569763,570059,570367,570669,570958,571247,571539,571832,572123,572429,572731,573041,573329,573609,573894,574194,574430,574787,575096,575388,575679,575960,576249,576552,576863,577163,577457,577742,578026,578311,578601,578902,579205,579449,579791,580075,580358,580649,580948,581247,581544,581835,582120,582396,582669,582920,583240,583540,583822,584098,584364,584636,584904,585176,585455,585732,586012,586276,586526,586772,587031,587300,587573,587844,588114,588378,588644,588906,589178,589455,589748,590041,590317,590589,590864,591144,591418,591707,592000,592289,592572,592854,593069,593388,593684,593991,594281,594564,594856,595128,595403,595691,595993,596279,596585,596880,597137,597403,597671,597926,598187,598459,598714,598970,599223,599469,599704,599953,600215,600484,600740,601012,601274,601538,601800,602065,602331,602611,602894,603180,603456,603723,603990,604278,604565,604845,605149,605460,605738,606009,606294,606588,606881,607179,607476,607767,608044,608310,608577,608854,609137,609426,609716,609988,610263,610545,610824,611109,611400,611696,611987,612264,612540,612820,613109,613400,613694,613984,614260,614540,614817,615090,615371,615677,615969,616251,616527,616804,617087,617367,617656,617950,618249,618529,618805,619082,619363,619654,619952,620250,620542,620827,621103,621380,621662,621945,622248,622542,622824,623090,623368,623639,623918,624192,624483,624766,625049,625310,625580,625854,626139,626428,626716,627001,627282,627556,627828,628104,628392,628689,628982,629172,629495,629762,630028,630290,630562,630837,631111,631378,631637,631899,632157,632415,632689,632959,633230,633499,633769,634029,634284,634546,634827,635108,635395,635685,635967,636239,636521,636812,637106,637400,637705,637998,638283,638561,638847,639141,639447,639745,640040,640330,640616,640901,641179,641480,641778,642066,642338,642615,642888,643165,643440,643722,644006,644287,644548,644808,645064,645321,645582,645864,646133,646394,646659,646917,647169,647415,647673,647935,648204,648478,648734,648979,649233,649485,649735,649992,