84,397,712,1033,1369,1713,2037,2350,2663,2973,3302,3632,3961,4284,4610,4929,5242,5570,5899,6224,6529,6831,7144,7464,7787,8106,8415,8722,9027,9322,9629,9954,10282,10591,10893,11186,11471,11761,12051,12339,12622,12912,13184,13458,13741,14031,14334,14641,14924,15196,15475,15761,16052,16352,16656,16957,17251,17533,17815,18100,18397,18688,18978,19268,19559,19861,20174,20494,20823,21167,21499,21809,22131,22452,22783,23127,23458,23775,24091,24405,24721,25041,25375,25705,26009,26311,26638,26968,27304,27622,27935,28244,28560,28862,29156,29468,29783,30089,30388,30689,30986,31311,31635,31948,32263,32566,32867,33166,33468,33778,34093,34392,34680,34981,35289,35599,35913,36218,36530,36838,37142,37451,37774,38100,38431,38749,39060,39377,39693,40014,40341,40669,40977,41266,41544,41830,42127,42422,42715,42991,43269,43547,43817,44096,44388,44677,44978,45271,45554,45840,46139,46441,46751,47061,47360,47656,47945,48229,48518,48822,49126,49423,49700,49979,50249,50528,50817,51115,51401,51688,51966,52240,52513,52795,53088,53382,53668,53948,54222,54518,54815,55108,55406,55711,56012,56308,56608,56919,57253,57593,57929,58246,58543,58846,59167,59491,59823,60157,60478,60785,61090,61396,61728,62059,62360,62673,62995,63316,63632,63968,64293,64628,64930,65246,65577,65907,66226,66565,66891,67199,67511,67833,68165,68506,68831,69137,69447,69758,70083,70418,70753,71089,71401,71711,72022,72351,72681,73003,73308,73601,73913,74230,74557,74897,75214,75538,75855,76168,76494,76832,77162,77499,77828,78148,78475,78816,79160,79517,79854,80162,80465,80774,81108,81453,81791,82114,82444,82774,83108,83434,83778,84119,84428,84736,85073,85419,85753,86069,86373,86684,86993,87306,87655,88001,88339,88668,89000,89346,89700,90061,90400,90738,91070,91398,91744,92095,92449,92792,93132,93472,93818,94158,94518,94870,95200,95529,95865,96228,96590,96942,97285,97613,97951,98291,98648,99013,99359,99693,100017,100362,100723,101087,101427,101772,102114,102457,102826,103198,103556,103882,104211,104549,104884,105200,105533,105853,106183,106506,106843,107209,107568,107919,108254,108575,108919,109275,109635,109999,110347,110692,111048,111411,111792,112166,112523,112881,113246,113616,113986,114355,114706,115063,115743,116092,116437,116770,117099,117434,117780,118145,118513,118854,119178,119513,119846,120172,120503,120824,121149,121459,121761,122092,122447,122803,123146,123476,123824,124180,124537,124894,125234,125564,125890,126228,126593,126954,127299,127637,127969,128291,128632,128986,129353,129695,130008,130334,130650,130990,131320,131648,131958,132267,132577,132912,133274,133650,134019,134366,134722,135106,135300,135726,136088,136435,136786,137138,137508,137888,138233,138582,138935,139311,139690,140064,140434,140776,141127,141495,141874,142252,142611,142949,143308,143681,144061,144441,144809,145157,145508,145879,146250,146605,146962,147316,147672,148052,148436,148812,149167,149522,149882,150260,150650,151013,151368,151730,152093,152471,152862,153244,153599,153961,154345,154723,155102,155478,155838,156188,156556,156945,157324,157673,158029,158386,158756,159119,159490,159867,160217,160574,160952,161335,161718,162088,162456,162820,163205,163596,163973,164334,164693,165054,165442,165833,166204,166559,166921,167294,167655,168031,168390,168729,169054,169392,169765,170129,170482,170845,171193,171539,171903,172273,172646,172992,173330,173701,174088,174456,174834,175193,175546,175915,176287,176665,177033,177379,177698,178031,178389,178753,179131,179491,179837,180215,180598,180976,181343,181692,182043,182388,182734,183075,183426,183768,184106,184449,184807,185158,185495,185823,186154,186491,186847,187207,187571,187896,188209,188531,188861,189212,189562,189901,190237,190564,190883,191227,191581,191937,192264,192587,192919,193258,193606,193950,194286,194623,194954,195286,195637,196005,196366,196703,197046,197392,197735,198084,198434,198781,199118,199458,199811,200169,200525,200871,201214,201551,201896,202243,202599,202961,203310,203649,203998,204345,204690,205034,205366,205698,206048,206420,206786,207161,207521,207880,208236,208624,209016,209378,209747,210110,210474,210849,211240,211622,211977,212352,212727,213096,213463,213814,214153,214497,214848,215235,215568,215982,216338,216690,217039,217390,217720,218061,218392,218713,219067,219443,219820,220184,220550,220917,221282,221669,222039,222389,222730,223065,223418,223783,224137,224486,224827,225172,225516,225890,226267,226635,226997,227351,227705,228087,228467,228827,229192,229551,229901,230273,230661,231033,231374,231735,232105,232477,232854,233229,233594,233940,234310,234706,235085,235453,235813,236175,236544,236937,237326,237681,238028,238383,238735,239109,239483,239830,240177,240537,240905,241282,241664,242036,242386,242752,243140,243528,243903,244269,244640,244995,245375,245770,246140,246489,246845,247225,247599,247976,248352,248708,249046,249407,249783,250146,250508,250853,251204,251551,251920,252300,252661,253019,253375,253745,254124,254502,254874,255221,255587,255963,256343,256733,257110,257459,257824,258208,258586,258959,259326,259683,260023,260377,260753,261127,261479,261828,262187,262550,262923,263298,263647,264003,264357,264715,265098,265471,265818,266168,266534,266900,267269,267638,267999,268347,268695,269072,269453,269815,270172,270536,270888,271260,271644,272007,272362,272715,273078,273449,273822,274191,274539,274896,275262,275622,276003,276379,276726,277070,277434,277819,278181,278540,278907,279256,279605,279984,280374,280735,281090,281455,281822,282193,282575,282945,283297,283659,284023,284407,284779,285148,285502,285851,286223,286599,286966,287327,287681,288033,288395,288786,289150,289507,289869,290215,290575,290954,291319,291674,292026,292375,292740,293118,293494,293845,294196,294553,294910,295271,295639,295990,296336,296688,297071,297446,297808,298184,298539,298893,299268,299626,299990,300326,300640,300971,301302,301658,302026,302394,302746,303102,303474,303863,304240,304612,304978,305339,305706,306082,306472,306833,307190,307545,307909,308295,308638,308981,309328,309669,310029,310408,310786,311134,311478,311825,312173,312540,312906,313249,313595,313944,314288,314651,314987,315306,315613,315924,316235,316565,316903,317233,317586,317929,318280,318637,319019,319401,319761,320108,320469,320839,321221,321585,321950,322302,322649,323015,323393,323762,324113,324456,324816,325183,325548,325913,326258,326572,326885,327203,327556,327917,328269,328619,328974,329340,329722,330091,330466,330827,331198,331575,331953,332322,332689,333052,333406,333743,334111,334458,334786,335096,335400,335710,336020,336346,336670,336995,337311,337625,337952,338301,338661,339016,339362,339725,340073,340435,340786,341116,341443,341774,342125,342507,342889,343269,343636,344008,344379,344747,345125,345488,345828,346155,346498,346861,347206,347528,347858,348191,348521,348869,349229,349594,349931,350240,350539,350843,351150,351456,351780,352102,352442,352787,353152,353535,353899,354251,354581,354910,355233,355574,355931,356293,356647,356995,357361,357745,358130,358499,358863,359221,359580,359960,360334,360701,361032,361362,361718,362058,362409,362744,363049,363347,363643,363939,364268,364620,364955,365271,365583,365914,366276,366654,367037,367414,367783,368157,368550,368945,369318,369657,370014,370371,370729,371093,371451,371804,372149,372502,372879,373239,373595,373944,374301,374662,375033,375414,375774,376123,376475,376837,377206,377568,377926,378286,378625,378973,379346,379721,380075,380415,380757,381120,381466,381796,382142,382469,382797,383122,383469,383845,384197,384548,384895,385245,385606,385981,386358,386716,387069,387422,387768,388136,388476,388797,389108,389433,389770,390118,390467,390824,391176,391524,391876,392255,392628,392981,393322,393674,394030,394392,394774,395130,395459,395802,396152,396526,396898,397268,397623,397966,398315,398683,399046,399412,399765,400113,400451,400802,401148,401491,401829,402178,402535,402898,403283,403661,404031,404382,404751,405130,405502,405886,406250,406606,406958,407340,407728,408089,408452,408808,409156,409530,409911,410280,410631,410981,411332,411708,412080,412440,412793,413150,413499,413864,414255,414616,414962,415318,415670,416042,416411,416770,417124,417470,417817,418184,418564,418917,419266,419622,419971,420342,420700,421067,421421,421762,422114,422483,422860,423216,423554,423891,424230,424561,424894,425241,425584,425921,426266,426621,427005,427379,427735,428094,428438,428797,429174,429555,429909,430259,430624,430984,431355,431724,432070,432417,432757,433092,433454,433816,434164,434499,434852,435218,435585,435958,436332,436676,437019,437385,437768,438135,438482,438830,439176,439526,439878,440233,440584,440926,441255,441605,441954,442312,442651,442968,443290,443608,443940,444299,444647,444976,445307,445643,445997,446350,446714,447075,447419,447758,448112,448463,448827,449182,449516,449864,450213,450556,450910,451254,451599,451940,452283,452644,453000,453353,453695,454030,454378,454719,455086,455452,455802,456134,456470,456817,457176,457519,457862,458211,458546,458888,459252,459603,459961,460306,460629,460980,461331,461674,462020,462357,462692,463024,463380,463760,464116,464467,464801,465148,465502,465866,466220,466557,466880,467208,467555,467905,468265,468611,468933,469272,469614,469964,470329,470682,471033,471372,471714,472077,472439,472799,473150,473503,473857,474197,474557,474919,475263,475591,475930,476293,476653,477022,477371,477714,478042,478387,478749,479117,479463,479808,480162,480519,480875,481251,481613,481948,482287,482628,482998,483343,483691,484032,484363,484704,485047,485407,485772,486126,486476,486837,487214,487597,487955,488305,488655,489006,489362,489720,490085,490433,490763,491103,491458,491815,492166,492496,492821,493148,493481,493821,494174,494512,494840,495169,495505,495854,496215,496576,496925,497244,497570,497903,498242,498576,498891,499191,499510,499821,500138,500464,500791,501118,501439,501762,502081,502428,502772,503106,503421,503724,504045,504378,504723,505089,505438,505769,506087,506420,506768,507112,507445,507792,508134,508482,508850,509232,509608,509952,510302,510665,511037,511412,511772,512124,512469,512823,513191,513556,513911,514267,514614,514967,515334,515705,516084,516441,516791,517135,517504,517878,518235,518581,518933,519283,519644,520013,520385,520737,521079,521440,521813,522174,522539,522874,523220,523563,523915,524262,524618,524967,525314,525654,526022,526401,526769,527129,527484,527826,528159,528507,528874,529225,529579,529943,530312,530689,531067,531431,531778,532015,532474,532865,533237,533599,533955,534316,534687,535058,535420,535770,536118,536482,536873,537272,537658,538041,538401,538749,539125,539506,539877,540218,540570,540937,541306,541666,542033,542398,542741,543087,543468,543848,544205,544557,544916,545286,545657,546036,546414,546757,547097,547456,547838,548211,548576,548943,549305,549663,550049,550433,550799,551143,551485,551843,552205,552572,552932,553273,553626,553988,554356,554726,555092,555439,555774,556138,556512,556873,557233,557593,557944,558298,558675,559055,559407,559750,560113,560471,560837,561211,561562,561884,562191,562517,562885,563257,563613,563968,564332,564687,565052,565438,565820,566169,566527,566898,567276,567647,568017,568386,568732,569086,569466,569845,570200,570550,570910,571274,571632,572004,572370,572721,573060,573416,573803,574173,574530,574880,575218,575559,575912,576278,576643,576985,577333,577696,578079,578463,578832,579194,579551,579896,580268,580649,581024,581381,581738,582110,582488,582862,583232,583587,583951,584308,584683,585062,585418,585761,586109,586480,586854,587220,587590,587926,588270,588629,589008,589372,589728,590081,590437,590789,591159,591532,591871,592202,592534,592862,593206,593544,593878,594216,594552,594906,595264,595638,596015,596368,596718,597080,597467,597838,598207,598573,598912,599259,599626,599990,600349,600694,601043,601396,601763,602127,602484,602837,603173,603507,603865,604229,604573,604908,605250,605582,605937,606301,606675,607018,607353,607686,608016,608358,608712,609059,609398,609751,610114,610500,610881,611263,611617,611967,612340,612709,613068,613423,613775,614128,614490,614853,615230,615590,615935,616289,616656,617035,617393,617764,618120,618469,618825,619200,619584,619939,620283,620648,621011,621380,621751,622123,622460,622798,623162,623529,623872,624215,624553,624891,625229,625591,625972,626332,626675,627023,627374,627726,628082,628434,628785,629131,629485,629863,630245,630626,630983,631341,631696,632065,632445,632813,633173,633527,633890,634279,634649,635010,635366,635729,636100,636483,636857,637217,637556,637897,638240,638590,638919,639255,639595,639947,640288,640650,641025,641397,641738,642073,642438,642813,643178,643543,643901,644268,644630,645014,645396,645750,646100,646452,646822,647196,647570,647935,648292,648648,649005,649373,649752,