226,488,690,965,1148,1434,1611,1883,2073,2332,2507,2785,2990,3301,3485,3739,3976,4202,4417,4647,4881,5135,5382,5606,5822,6088,6286,6548,6719,7077,7261,7456,7900,8075,8395,8578,8727,9171,9385,9711,9964,10198,10437,10674,10902,11133,11362,11618,11858,12160,12365,12722,12901,13053,13523,13734,14102,14361,14539,14904,15086,15411,15596,15929,16196,16386,16696,16881,17165,17339,17667,17861,18200,18384,18698,18940,19129,19433,19607,19916,20100,20431,20642,20954,21121,21391,21575,21874,22058,22389,22647,22881,23123,23348,23603,23858,24099,24342,24596,24825,25103,25314,25628,25796,25994,26388,26596,26919,27110,27475,27653,28019,28204,28560,28748,29109,29312,29663,29897,30124,30287,30598,30789,31129,31324,31616,31794,32096,32287,32600,32771,33100,33368,33638,33909,34160,34409,34661,34946,35235,35532,35885,36088,36446,36630,36995,37185,37557,37790,38128,38320,38636,38811,39130,39320,39485,39792,40201,40378,40689,40890,41165,41356,41733,41929,42278,42543,42731,43033,43213,43517,43723,44064,44262,44570,44757,45061,45246,45570,45760,46086,46271,46609,46836,47028,47353,47545,47858,48044,48375,48711,49017,49274,49554,49835,50113,50386,50661,50928,51198,51462,51708,51955,52201,52487,52785,53064,53301,53542,53790,54038,54290,54556,54824,55071,55330,55605,55846,56081,56322,56572,56821,57097,57376,57619,57858,58097,58353,58609,58879,59141,59400,59650,59906,60163,60403,60647,60884,61149,61437,61707,61948,62183,62425,62672,62921,63182,63445,63634,63860,64210,64396,64629,64937,65115,65442,65639,65989,66174,66479,66648,66954,67156,67472,67669,67998,68192,68515,68702,69037,69213,69533,69755,70101,70308,70619,70799,71087,71262,71577,71820,72111,72321,72613,72806,73126,73310,73600,73789,74095,74283,74597,74854,75085,75319,75518,75786,76060,76334,76584,76842,77101,77347,77565,77857,78044,78375,78566,78949,79134,79452,79658,79936,80175,80439,80687,80973,81171,81460,81654,81963,82145,82429,82614,82765,83182,83372,83668,83910,84126,84352,84596,84846,85099,85322,85548,85792,85982,86231,86474,86695,86928,87161,87341,87667,87849,88136,88357,88573,88802,89038,89286,89550,89785,90009,90229,90464,90705,90941,91174,91409,91664,91899,92141,92384,92582,92835,93033,93288,93512,93819,94048,94293,94518,94737,94966,95197,95406,95677,95914,96153,96355,96638,96820,97074,97291,97512,97735,97984,98235,98472,98662,98908,99124,99362,99593,99833,99999,100290,100530,100749,100950,101214,101387,101649,101860,102084,102353,102594,102826,103033,103239,103453,103659,103879,104096,104337,104534,104787,105016,105252,105467,105682,105864,106086,106263,106529,106772,107016,107237,107454,107657,107868,108095,108322,108534,108780,109015,109246,109458,109683,109880,110123,110336,110543,110726,111001,111224,111480,111701,111903,112102,112307,112510,112737,112971,113207,113405,113638,113835,114094,114288,114522,114720,114933,115145,115377,115614,115840,116040,116263,116437,116663,116862,117122,117314,117580,117806,118018,118212,118445,118624,118882,119097,119326,119539,119786,120017,120254,120443,120674,120879,121098,121289,121548,121760,122043,122269,122485,122697,122943,123129,123391,123613,123839,124078,124323,124541,124788,124977,125223,125442,125685,125924,126169,126412,126642,126861,127079,127278,127543,127734,128009,128204,128490,128741,128983,129216,129419,129637,129871,130088,130340,130585,130843,131043,131285,131467,131755,131990,132236,132469,132705,132930,133097,133420,133619,133878,134112,134337,134599,134884,135132,135363,135584,135820,136035,136273,136521,136762,137015,137245,137480,137726,137950,138174,138394,138626,138869,139124,139383,139639,139879,140106,140333,140585,140803,141084,141243,141571,141773,142045,142227,142534,142741,142969,143162,143636,143829,143989,144409,144593,144927,145204,145485,145760,146011,146269,146442,146758,146940,147216,147403,147712,147919,148219,148476,148711,148929,149158,149408,149648,149901,150128,150373,150613,150850,151097,151345,151595,151846,152117,152400,152663,152922,153151,153340,153614,153827,154261,154460,154800,155011,155314,155506,155823,155998,156317,156520,156839,157024,157323,157513,157778,157960,158294,158495,158813,158992,159271,159456,159754,159923,160252,160515,160720,160920,161382,161561,161903,162160,162418,162691,162971,163236,163488,163721,163923,164222,164412,164732,164917,165246,165436,165752,165937,166244,166489,166730,167003,167286,167556,167746,168031,168224,168500,168688,169009,169198,169387,169730,169911,170276,170528,170756,171001,171267,171533,171815,172055,172343,172524,172858,173062,173435,173647,174030,174228,174599,174789,175151,175358,175699,175917,176301,176574,176800,177034,177273,177514,177775,178046,178260,178526,178763,178968,179259,179497,179741,179959,180258,180450,180768,180970,181260,181430,181722,181928,182273,182481,182787,183035,183209,183508,183704,184005,184209,184524,184731,185051,185237,185501,185740,185976,186213,186481,186771,186984,187278,187439,187828,188019,188367,188554,188880,189231,189522,189812,190081,190338,190621,190942,191237,191506,191773,192038,192300,192569,192853,193126,193382,193645,193921,194170,194419,194662,194919,195180,195469,195754,196002,196246,196486,196757,197027,197301,197545,197795,198045,198289,198538,198794,199040,199289,199567,199869,200131,200383,200625,200865,201098,201360,201652,201919,202182,202438,202650,202960,203153,203462,203663,203981,204190,204517,204741,205011,205186,205478,205689,206015,206226,206514,206698,206978,207164,207458,207654,207888,208195,208414,208731,208921,209213,209390,209653,209842,210163,210371,210704,210890,211175,211361,211667,211856,212177,212401,212661,212871,213204,213390,213717,213906,214196,214404,214781,215026,215325,215514,215807,215980,216301,216566,216811,217122,217289,217466,217896,218094,218380,218630,218882,219158,219377,219684,219866,220136,220312,220639,220848,221177,221368,221666,221860,222151,222394,222638,222870,223130,223380,223652,223911,224156,224380,224616,224851,225105,225383,225661,225895,226162,226357,226681,226860,227019,227196,227617,227843,228235,228428,228745,228977,229208,229465,229740,230011,230245,230481,230719,230907,231171,231364,231666,231890,232156,232378,232655,232890,233123,233317,233554,233753,234033,234244,234432,234779,234981,235219,235449,235697,235912,236195,236385,236662,236893,237122,237322,237585,237778,238022,238256,238515,238732,238900,239232,239455,239671,239855,240120,240321,240612,240857,241078,241268,241538,241772,241982,242168,242436,242685,242919,243129,243401,243584,243851,244057,244278,244487,244779,244985,245262,245490,245720,245898,246133,246321,246606,246854,247081,247301,247586,247781,248044,248248,248454,248653,248904,249107,249414,249648,249872,250084,250306,250543,250765,250979,251222,251427,251706,251886,252148,252388,252607,252830,253036,253266,253505,253788,254031,254251,254468,254687,254874,255128,255359,255630,255835,256094,256298,256575,256816,257052,257240,257494,257685,257975,258205,258491,258719,258944,259120,259388,259589,259908,260180,260414,260627,260879,261070,261346,261540,261831,262072,262324,262569,262843,263042,263301,263474,263763,264003,264263,264535,264778,265014,265238,265482,265731,265976,266207,266461,266721,266894,267213,267418,267705,267911,268169,268398,268705,268918,269238,269419,269714,269888,270188,270392,270734,270996,271243,271506,271760,271978,272207,272439,272686,272925,273188,273457,273691,273924,274141,274380,274642,274904,275168,275423,275672,275901,276144,276395,276634,276878,277095,277387,277679,277926,278190,278426,278641,278892,279159,279432,279714,279971,280215,280473,280681,280989,281197,281483,281718,281985,282255,282509,282738,282959,283166,283434,283688,283966,284160,284438,284621,284896,285085,285388,285575,285899,286153,286415,286639,286914,287096,287360,287542,287836,288046,288380,288607,288868,289044,289317,289513,289670,290072,290261,290562,290802,291037,291271,291505,291725,291954,292174,292442,292677,292960,293144,293398,293622,293835,294035,294308,294524,294809,295034,295256,295492,295728,295950,296172,296396,296631,296874,297120,297340,297598,297791,298024,298233,298465,298702,298980,299228,299443,299657,299874,300088,300307,300543,300757,300987,301210,301416,301692,301913,302136,302313,302538,302754,302966,303187,303441,303667,303883,304070,304279,304496,304726,304925,305162,305377,305594,305807,306019,306231,306450,306651,306856,307052,307263,307498,307742,307961,308180,308375,308565,308766,308957,309169,309397,309626,309856,310067,310271,310489,310716,310920,311133,311325,311533,311761,311975,312208,312437,312647,312853,313047,313241,313456,313694,313922,314164,314372,314581,314803,314996,315210,315426,315629,315857,316075,316298,316539,316779,316992,317209,317406,317602,317819,318032,318271,318524,318758,318983,319183,319387,319609,319831,320053,320280,320503,320719,320941,321165,321380,321603,321807,322019,322218,322448,322681,322957,323179,323393,323604,323813,323988,324233,324468,324703,324934,325155,325381,325613,325841,326055,326264,326474,326691,326914,327156,327389,327634,327846,328064,328265,328486,328735,328945,329209,329401,329661,329888,330101,330323,330562,330755,331022,331249,331502,331727,332002,332211,332423,332602,332872,333093,333337,333601,333837,334046,334268,334458,334736,334958,335195,335425,335671,335922,336146,336391,336628,336836,337074,337264,337530,337754,338072,338282,338554,338778,339009,339229,339472,339739,339990,340243,340436,340611,340960,341143,341427,341649,341878,342123,342309,342622,342835,343083,343296,343513,343762,344019,344274,344522,344746,344996,345190,345452,345643,345928,346119,346404,346610,346934,347122,347408,347592,347847,348039,348330,348535,348842,349033,349319,349496,349772,349971,350256,350460,350725,350934,351207,351407,351692,351885,352156,352332,352625,352907,353181,353442,353660,353884,354111,354286,354584,354802,355093,355296,355602,355801,356117,356367,356551,356828,357053,357365,357573,357947,358125,358420,358601,358910,359186,359467,359714,359948,360164,360400,360606,360888,361075,361227,361611,361823,362143,362340,362595,362762,363044,363233,363531,363739,364071,364259,364528,364705,365004,365205,365502,365687,365988,366196,366478,366667,366963,367143,367405,367579,367907,368135,368451,368640,368920,369104,369368,369558,369877,370082,370402,370587,370897,371103,371401,371588,371884,372075,372405,372613,372929,373133,373274,373707,373899,374354,374585,374917,375169,375413,375663,375884,376161,376431,376681,376953,377245,377495,377743,377981,378235,378494,378789,379039,379323,379703,379899,380296,380488,380916,381120,381526,381718,382089,382305,382621,382804,383169,383452,383762,383953,384245,384440,384749,384947,385314,385516,385685,385888,386083,386289,386609,386806,387114,387308,387637,387845,388176,388366,388661,388835,389162,389385,389742,389942,390260,390456,390763,390948,391286,391484,391830,392028,392399,392600,392925,393103,393434,393657,393997,394235,394572,394764,394914,395353,395558,395931,396127,396326,396469,396586,396905,397092,397522,397719,398083,398315,398648,399038,399222,399577,399755,400144,400372,400772,400988,401311,401554,401840,402031,402349,402557,402725,403150,403358,403660,403845,404126,404332,404686,404900,405216,405461,405649,405930,406131,406429,406621,406897,407076,407451,407654,407974,408149,408326,408538,408952,409158,409508,409704,409997,410178,410501,410690,411031,411228,411549,411740,412043,412238,412540,412727,413028,413237,413610,413808,413980,414363,414540,414844,415106,415385,415656,415895,416154,416413,416681,416869,417133,417347,417498,417974,418179,418569,418783,419058,419281,419609,419896,420114,420417,420615,420899,421086,421392,421603,421933,422129,422463,422678,422878,423247,423428,423745,423947,424281,424497,424826,425023,425301,425488,425830,426038,426215,426625,426823,427125,427329,427633,427810,428096,428292,428621,428851,429170,429360,429611,429792,430117,430326,430685,430882,431197,431387,431556,431944,432139,432420,432620,432914,433114,433451,433657,433951,434143,434427,434635,434992,435220,435525,435714,436005,436190,436481,436697,436997,437195,437498,437711,438003,438201,438463,438650,438939,439136,439457,439680,439986,440180,440451,440644,440943,441147,441478,441679,442007,442200,442472,442676,442992,443184,443466,443685,444040,444242,444526,444716,444988,445165,445474,445693,446007,446216,446499,446689,446986,447178,447476,447670,447969,448166,448465,448667,448954,449143,449401,449590,449919,450141,450457,450640,450900,451105,451390,451578,451886,452077,452384,452579,452892,453098,453380,453546,453827,454033,454301,454511,454878,455065,455367,455548,455868,456073,456406,456606,456926,457130,457425,457617,457936,458126,458407,458606,458995,459211,459549,459723,459991,460189,460343,460794,461004,461358,461624,461879,462149,462393,462594,462882,463091,463397,463604,463798,464137,464324,464589,464785,465101,465313,465629,465817,466081,466279,466533,466728,467030,467230,467529,467725,468021,468231,468517,468709,468971,469163,469453,469679,470009,470202,470486,470661,470925,471134,471457,471679,471975,472165,472455,472650,472931,473126,473412,473605,473907,474129,474421,474626,474935,475111,475435,475708,475988,476277,476541,476742,477006,477246,477550,477758,478069,478274,478556,478765,479118,479306,479613,479804,479988,480411,480642,480986,481205,481476,481656,481976,482192,482485,482700,483087,483289,483632,483831,484112,484301,484606,484824,485148,485348,485628,485801,486099,486303,486629,486845,487123,487317,487630,487818,488121,488364,488581,488845,489101,489380,489640,489892,490079,490336,490552,490843,491052,491364,491563,491876,492061,492382,492580,492873,493061,493364,493574,493849,494047,494347,494529,494778,494965,495286,495506,495814,496008,496275,496457,496724,496927,497220,497425,497739,497941,498087,498474,498661,498951,499132,499400,499605,499921,500138,500446,500630,500904,501087,501344,501571,501932,502144,502434,502635,502891,503087,503384,503576,503881,504074,504375,504604,504902,505097,505335,505521,505825,506026,506352,506581,506856,507041,507307,507506,507686,508041,508240,508536,508750,509010,509200,509494,509718,509949,510164,510408,510687,510949,511201,511415,511630,511859,512051,512221,512574,512772,513067,513254,513525,513736,514023,514215,514482,514677,514970,515173,515474,515683,515936,516111,516369,516579,516895,517104,517405,517611,517888,518061,518343,518548,518840,519048,519342,519556,519869,520064,520348,520528,520787,520989,521300,521516,521849,522037,522312,522495,522793,522996,523311,523516,523817,524021,524290,524488,524796,524977,525265,525456,525767,525997,526299,526488,526741,526925,527195,527397,527695,527919,528216,528399,528678,528888,529158,529354,529619,529825,530111,530299,530596,530807,531068,531251,531498,531694,532005,532213,532525,532711,532906,533196,533427,533624,533913,534157,534390,534626,534895,535150,535386,535601,535832,536077,536317,536585,536858,537061,537319,537500,537810,538011,538198,538433,538841,539025,539327,539555,539818,540014,540293,540473,540780,541005,541326,541524,541798,541978,542265,542443,542770,543070,543338,543586,543796,544064,544338,544602,544844,545106,545345,545655,545855,546236,546422,546735,547020,547317,547594,547846,548094,548299,548532,548878,549127,549293,549743,549926,550324,550592,550752,551104,551299,551665,551954,552175,552472,552655,552932,553136,553329,553734,553928,554239,554446,554710,554899,555245,555428,555740,555950,556310,556523,556844,557015,557304,557506,557856,558066,558429,558674,558846,559179,559392,559697,559904,560226,560496,560701,561076,561280,561637,561820,562185,562527,562836,563116,563377,563647,563903,564175,564477,564766,565029,565291,565518,565875,566074,566429,566637,567029,567265,567603,567820,567949,568395,568632,568958,569252,569506,569759,569993,570240,570500,570755,570968,571239,571450,571789,571980,572261,572483,572745,572947,573267,573489,573868,574041,574383,574582,574944,575225,575498,575786,576036,576290,576549,576784,577017,577229,577536,577785,578212,578388,578740,578918,579265,579522,579836,580105,580357,580628,580855,581133,581406,581680,581958,582246,582532,582735,583083,583260,583665,583883,584304,584584,584767,585106,585326,585678,585969,586253,586526,586766,586960,587349,587516,587838,588037,588385,588608,588917,589184,589411,589660,589902,590186,590458,590723,590947,591297,591499,591858,592039,592397,592601,593005,593290,593543,593763,594014,594248,594511,594798,595041,595325,595555,595797,596062,596308,596533,596882,597098,597480,597679,598040,598257,598559,598864,599193,599492,599715,599993,600194,600453,600654,601064,601267,601668,601955,602240,602451,602727,602932,603346,603545,603939,604225,604401,604576,604961,605187,605560,605874,606139,606363,606655,606861,607289,607487,607874,608177,608473,608732,608970,609169,609511,609709,610115,610322,610685,610944,611224,611508,611800,612079,612364,612637,612904,613162,613404,613651,613890,614115,614422,614651,615032,615213,615546,615799,616037,616352,616632,616816,617128,617362,617647,617907,618103,618254,618632,618851,619182,619439,619675,619887,620139,620422,620694,620982,621197,621475,621731,621994,622259,622523,622749,623103,623315,623709,623901,624237,624502,624777,625018,625360,625579,625941,626112,626473,626686,627067,627353,627627,627858,628159,628372,628679,628880,629171,629381,629776,629978,630288,630470,630763,630946,631270,631559,631805,632070,632306,632556,632817,633053,633315,633586,633872,634141,634371,634734,634924,635280,635585,635908,636212,636480,636703,636996,637192,637550,637754,638126,638347,638678,638953,639203,639435,639680,639922,640214,640462,640807,640996,641292,641475,641836,642078,642422,642691,642946,643199,643457,643712,643960,644209,644467,644745,645028,645278,645523,645744,645989,646207,646511,646800,647075,647300,647546,647727,648090,648357,648630,648900,649162,649409,649665,649928,